,Velocity,Braking,Acceleration_with_pitch_comp,Acceleration_measured,Pitch degrees,kk,ii,jj,hh,dd,aa,bb,cc
0,4.884499955177307,1.1599999904632567,-2.430989013693154,-2.44381718,0.07499999981373548,232,337,47,0,39,212,6,0
1,4.854736804962158,0.5263157894736842,-2.515493800429901,-2.5271246717499998,0.06799999950453639,232,337,47,0,39,212,6,0
2,4.805499958992004,0.5,-2.599972348006551,-2.6098927977499997,0.05799999982118607,232,337,47,0,39,212,6,0
3,4.77315784755506,0.45263158020220307,-2.679878258332709,-2.688002765,0.04749999959021807,232,337,47,0,39,212,6,0
4,4.722999954223633,0.4300000011920929,-2.7623966248061427,-2.76915279375,0.03949999967589975,232,337,47,0,39,212,6,0
5,4.6863157372725635,0.3789473709307219,-2.826150098580237,-2.83230761975,0.0359999998472631,232,337,47,0,39,212,6,0
6,4.633499956130981,0.3600000023841858,-2.892895748925983,-2.89879670675,0.03449999988079071,232,337,47,0,39,212,6,0
7,4.594210474114669,0.3052631616592407,-2.935333452658738,-2.94106336825,0.03349999990314245,232,337,47,0,39,212,6,0
8,4.537499952316284,0.2900000035762787,-2.9916224753953617,-2.9970103065,0.031499999854713676,232,337,47,0,39,212,6,0
9,4.493684166356137,0.23157895238775955,-3.050325524516481,-3.0551147077499996,0.02799999974668026,232,337,47,0,39,212,6,0
10,4.439999961853028,0.2200000047683716,-3.113011663979943,-3.1169456359999996,0.022999999951571225,232,337,47,0,39,212,6,0
11,4.397368380897923,0.17368421429081968,-3.1752815950012687,-3.1785313979999996,0.018999999947845937,232,337,47,0,39,212,6,0
12,4.341999959945679,0.1650000035762787,-3.217853853148484,-3.2208470927499997,0.017499999888241292,232,337,47,0,39,212,6,0
13,4.295263114728425,0.11578947619387978,-3.263650908648484,-3.2666441482499997,0.017499999888241292,232,337,47,0,39,212,6,0
14,4.230999958515167,0.1100000023841858,-3.297754108144055,-3.3009183899999996,0.01849999986588955,232,337,47,0,39,212,6,0
15,4.179473638534546,0.05789473809693989,-3.3177243345123117,-3.3213162219999997,0.020999999810010196,232,337,47,0,39,212,6,0
16,4.119999957084656,0.0550000011920929,-3.339753957387407,-3.3437734504999996,0.02349999975413084,232,337,47,0,39,212,6,0
17,4.072105206941304,0.0,-3.3564868410133184,-3.3605918552499996,0.02399999974295497,232,337,47,0,39,212,6,0
18,4.010499942302704,0.0,-3.393923153277732,-3.39785712525,0.022999999672174455,232,337,47,0,39,212,6,0
19,3.9610525808836283,0.0,-3.4149572692941708,-3.4185491567499997,0.02099999962374568,232,337,47,0,39,212,6,0
20,3.894999957084656,0.0,-3.4196884037960933,-3.423109249,0.019999999646097423,232,337,47,0,39,212,6,0
21,3.841578910225316,0.0,-3.426160792796093,-3.4295816379999997,0.019999999646097423,232,337,47,0,39,212,6,0
22,3.7799999594688414,0.0,-3.4261368502941707,-3.4297287377499996,0.02099999962374568,232,337,47,0,39,212,6,0
23,3.723157845045391,0.0,-3.422300859652426,-3.4261493104999996,0.022499999683350324,232,337,47,0,39,212,6,0
24,3.6614999532699586,0.0,-3.410104125777732,-3.41403809775,0.022999999672174455,232,337,47,0,39,212,6,0
25,3.604736804962158,0.0,-3.4084974256686174,-3.41217483425,0.02149999961256981,232,337,47,0,39,212,6,0
26,3.5424999594688416,0.0,-3.407037825296093,-3.4104586704999997,0.019999999646097423,232,337,47,0,39,212,6,0
27,3.48473680646796,0.0,-3.3963485767960933,-3.399769422,0.019999999646097423,232,337,47,0,39,212,6,0
28,3.4204999685287474,0.0,-3.384433497046093,-3.38785434225,0.019999999646097423,232,337,47,0,39,212,6,0
29,3.359473655098363,0.0,-3.371427140422448,-3.3747624645,0.019499999657273292,232,337,47,0,39,212,6,0
30,3.293999969959259,0.0,-3.361951177799057,-3.3652009807499996,0.018999999668449164,232,337,47,0,39,212,6,0
31,3.2321052425786068,0.0,-3.3461134380490574,-3.349363241,0.018999999668449164,232,337,47,0,39,212,6,0
32,3.1674999833106994,0.0,-3.326683725675914,-3.3298480075,0.018499999679625033,232,337,47,0,39,212,6,0
33,3.104210514771311,0.0,-3.3076462793030115,-3.31072504,0.017999999690800905,232,337,47,0,39,212,6,0
34,3.0409999907016756,0.0,-3.2922498388030115,-3.2953285995,0.017999999690800905,232,337,47,0,39,212,6,0
35,2.9784210418400012,0.0,-3.2732249378030116,-3.2763036985,0.017999999690800905,232,337,47,0,39,212,6,0
36,2.916499990224838,0.0,-3.2559891763079034,-3.25889689475,0.016999999713152646,232,337,47,0,39,212,6,0
37,2.8521052598953247,0.0,-3.2455200033136813,-3.2482566795,0.015999999735504387,232,337,47,0,39,212,6,0
38,2.7894999980926514,0.0,-3.2269603440702928,-3.229525978,0.01499999975785613,232,337,47,0,39,212,6,0
39,2.723684210526316,0.0,-3.2012178878202926,-3.2037835217499997,0.01499999975785613,232,337,47,0,39,212,6,0
40,2.6610000014305113,0.0,-3.179594224570293,-3.1821598585,0.01499999975785613,232,337,47,0,39,212,6,0
41,2.5973684285816394,0.0,-3.1575532045776855,-3.15994779625,0.013999999780207873,232,337,47,0,39,212,6,0
42,2.535500007867813,0.0,-3.1334892759651263,-3.13562730425,0.012499999813735485,232,337,47,0,39,212,6,0
43,2.47052632507525,0.0,-3.1164245567498923,-3.1182205004999997,0.010499999765306712,232,337,47,0,39,212,6,0
44,2.4080000102519987,0.0,-3.103491175890479,-3.1050305562499996,0.008999999798834323,232,337,47,0,39,212,6,0
45,2.3436842152946875,0.0,-3.0857160486514674,-3.08708438675,0.007999999821186066,232,337,47,0,39,212,6,0
46,2.284500002861023,0.0,-3.047813346401467,-3.0491816844999997,0.007999999821186066,232,337,47,0,39,212,6,0
47,2.222631579951236,0.0,-3.0510860287821204,-3.05236884575,0.007499999832361937,232,337,47,0,39,212,6,0
48,2.1625,0.0,-3.024693594912872,-3.02589089075,0.006999999843537807,232,337,47,0,39,212,6,0
49,2.0963157854582133,0.0,-3.028934396924641,-3.0299606504999996,0.005999999865889549,232,337,47,0,39,212,6,0
50,2.0364999949932097,0.0,-3.003056238067866,-3.00382592825,0.004499999899417162,232,337,47,0,39,212,6,0
51,1.9705263125269037,0.0,-2.998396931092955,-2.99882453675,0.0024999999441206455,232,337,47,0,39,212,6,0
52,1.9119999974966049,0.0,-2.9901832876057206,-2.9904398509999996,0.0014999999664723873,232,337,47,0,39,212,6,0
53,1.8542105241825706,0.0,-2.970067109737136,-2.970238152,0.0009999999776482583,232,337,47,0,39,212,6,0
54,1.7934999972581864,0.0,-2.951434474737136,-2.951605517,0.0009999999776482583,232,337,47,0,39,212,6,0
55,1.7305263124014203,0.0,-2.9440053632499996,-2.9440053632499996,-0.0,232,337,47,0,39,212,6,0
56,1.6724999964237213,0.0,-2.9188627031442786,-2.9186061397499996,-0.0014999999664723873,232,337,47,0,39,212,6,0
57,1.6110526323318481,0.0,-2.911482624907045,-2.91105501925,-0.0024999999441206455,232,337,47,0,39,212,6,0
58,1.5530000001192092,0.0,-2.888755139419681,-2.8881564914999998,-0.0034999999217689036,232,337,47,0,39,212,6,0
59,1.4957894682884216,0.0,-2.8725125883009337,-2.87182841925,-0.003999999910593033,232,337,47,0,39,212,6,0
60,1.439999994635582,0.0,-2.8465249658009335,-2.8458407967499997,-0.003999999910593033,232,337,47,0,39,212,6,0
61,1.3784210525060956,0.0,-2.825649346669681,-2.8250506987499997,-0.0034999999217689036,232,337,47,0,39,212,6,0
62,1.3239999994635583,0.0,-2.8005808105509336,-2.7998966414999997,-0.003999999910593033,232,337,47,0,39,212,6,0
63,1.262631577880759,0.0,-2.780206921063276,-2.77935170975,-0.004999999888241291,232,337,47,0,39,212,6,0
64,1.2029999990016222,0.0,-2.743210759825358,-2.7421845062499997,-0.005999999865889549,232,337,47,0,39,212,6,0
65,1.142105267628243,0.0,-2.6701512173253583,-2.66912496375,-0.005999999865889549,232,337,47,0,39,212,6,0
66,1.092500004544854,0.0,-2.581364546944353,-2.5804238145,-0.0054999998770654205,232,337,47,0,39,212,6,0
67,1.0342105285901773,0.0,-2.4362147298009336,-2.4355305607499997,-0.003999999910593033,232,337,47,0,39,212,6,0
68,5.716842124336644,24.678947084828426,-1.9395917484298435,-1.9164155429999998,-0.13549999939277768,232,337,47,0,39,212,6,0
69,5.678500008583069,23.444999730587007,-2.095884561058131,-2.0688599172499997,-0.15799999954178928,232,337,47,0,39,212,6,0
70,5.671052631578948,21.173684007243107,-2.238583763371222,-2.2079672475,-0.17899999963119625,232,337,47,0,39,212,6,0
71,5.625,20.114999806880952,-2.3759531836114722,-2.3425144854999997,-0.19549999916926025,232,337,47,0,39,212,6,0
72,5.612105269181101,17.668420929657785,-2.484406680064131,-2.44857340525,-0.20949999876320363,232,337,47,0,39,212,6,0
73,5.566499996185303,16.784999883174898,-2.5713117873657505,-2.53359706075,-0.22049999944865703,232,337,47,0,39,212,6,0
74,5.5489473593862435,14.178947084828428,-2.6393504868885262,-2.5994977487499997,-0.232999999076128,232,337,47,0,39,212,6,0
75,5.497499990463257,13.469999730587006,-2.707928550200735,-2.6659378025,-0.24549999833106995,232,337,47,0,39,212,6,0
76,5.474736841101396,10.69999979671679,-2.7764324858819807,-2.73213269,-0.25899999812245367,232,337,47,0,39,212,6,0
77,5.421000003814697,10.164999806880951,-2.8671735739227797,-2.82073577275,-0.2714999973773956,232,337,47,0,39,212,6,0
78,5.392631580955104,7.221052508605154,-2.944026856105658,-2.895707612,-0.28249999731779096,232,337,47,0,39,212,6,0
79,5.339000010490418,6.859999883174896,-3.0068087463757873,-2.9569501412499997,-0.29149999693036077,232,337,47,0,39,212,6,0
80,5.304210537358334,4.163157852072465,-3.0702292206272874,-3.0191733354999997,-0.2984999969601631,232,337,47,0,39,212,6,0
81,5.249500012397766,3.9549999594688416,-3.1234405375296594,-3.0717860127499996,-0.30199999660253524,232,337,47,0,39,212,6,0
82,5.208421054639314,1.1052631955397756,-3.1640514622356455,-3.1121403775,-0.30349999740719796,232,337,47,0,39,212,6,0
83,5.153500008583069,1.0500000357627868,-3.2036087483356415,-3.15161214375,-0.3039999969303608,232,337,47,0,39,212,6,0
84,5.106315788469817,0.06842105012190969,-3.2380540299011824,-3.1858863855,-0.30499999672174455,232,337,47,0,39,212,6,0
85,5.04449999332428,0.06499999761581421,-3.2757845392008322,-3.2234458549999996,-0.30599999651312826,232,337,47,0,39,212,6,0
86,4.99157893030267,0.0,-3.302678700234539,-3.25016897625,-0.306999996304512,232,337,47,0,39,212,6,0
87,4.932499980926513,0.0,-3.338877785280965,-3.28645358125,-0.30649999603629113,232,337,47,0,39,212,6,0
88,4.875263138821251,0.0,-3.3685452076414957,-3.3168051629999997,-0.3024999961256981,232,337,47,0,39,212,6,0
89,4.817499983310699,0.0,-3.383712487113179,-3.3330842019999998,-0.29599999636411667,232,337,47,0,39,212,6,0
90,4.761052621038337,0.0,-3.3847832827506457,-3.3354377979999996,-0.28849999606609344,232,337,47,0,39,212,6,0
91,4.698499989509583,0.0,-3.383230222586683,-3.33499649875,-0.281999996304512,232,337,47,0,39,212,6,0
92,4.643684211530183,0.0,-3.4039872905519486,-3.3568653282499996,-0.2754999965429306,232,337,47,0,39,212,6,0
93,4.582000005245209,0.0,-3.427895032044885,-3.3819703522499998,-0.2684999957680702,232,337,47,0,39,212,6,0
94,4.527894735336304,0.0,-3.42986212131997,-3.385647846,-0.2584999963641167,232,337,47,0,39,212,6,0
95,4.463499999046325,0.0,-3.4237398744777976,-3.38157808625,-0.24649999737739564,232,337,47,0,39,212,6,0
96,4.411052628567345,0.0,-3.4270206146336553,-3.3871678767499995,-0.2329999975860119,232,337,47,0,39,212,6,0
97,4.344999992847443,0.0,-3.407709570401387,-3.3702514055,-0.2189999982714653,232,337,47,0,39,212,6,0
98,4.287894738347907,0.0,-3.3885205318135414,-3.353285901,-0.20599999874830247,232,337,47,0,39,212,6,0
99,4.2215000033378605,0.0,-3.375373976855128,-3.3421063199999996,-0.19449999928474426,232,337,47,0,39,212,6,0
100,4.16210527169077,0.0,-3.374927032179071,-3.3436263507499997,-0.18299999907612802,232,337,47,0,39,212,6,0
101,4.093500006198883,0.0,-3.370495847350757,-3.3410766217499996,-0.17199999950826167,232,337,47,0,39,212,6,0
102,4.032105257636623,0.0,-3.3596777930556145,-3.33205450375,-0.16149999890476466,232,337,47,0,39,212,6,0
103,3.9694999933242796,0.0,-3.3516056000239227,-3.3257782477499997,-0.15099999941885472,232,337,47,0,39,212,6,0
104,3.9063157784311393,0.0,-3.342699840874844,-3.3186684265,-0.14049999993294476,232,337,47,0,39,212,6,0
105,3.843999993801117,0.0,-3.3329354243923266,-3.3105289069999997,-0.13099999986588956,232,337,47,0,39,212,6,0
106,3.7789473659113835,0.0,-3.31755612566894,-3.296603464,-0.12249999977648258,232,337,47,0,39,212,6,0
107,3.714999997615814,0.0,-3.3095922439438157,-3.2898368755,-0.11550000011920929,232,337,47,0,39,212,6,0
108,3.6500000075290076,0.0,-3.3038462548676453,-3.285031617,-0.11000000052154064,232,337,47,0,39,212,6,0
109,3.586500012874603,0.0,-3.2932208827481824,-3.27517593375,-0.1055000003427267,232,337,47,0,39,212,6,0
110,3.5252631714469507,0.0,-3.2894841078574695,-3.2720378057499997,-0.10200000070035457,232,337,47,0,39,212,6,0
111,3.4635000109672545,0.0,-3.2905525914016556,-3.2737049362499997,-0.09850000105798244,232,337,47,0,39,212,6,0
112,3.3984210742147347,0.0,-3.269886799630304,-3.2535522704999997,-0.09550000131130218,232,337,47,0,39,212,6,0
113,3.3375000238418577,0.0,-3.2509862048141707,-3.23516480175,-0.09250000156462193,232,337,47,0,39,212,6,0
114,3.275263183995297,0.0,-3.2448958335654754,-3.22967307775,-0.08900000117719173,232,337,47,0,39,212,6,0
115,3.215500020980835,0.0,-3.237310522435325,-3.222857456,-0.08450000081211329,232,337,47,0,39,212,6,0
116,3.153157911802593,0.0,-3.202033970465218,-3.1884361145,-0.07950000073760748,232,337,47,0,39,212,6,0
117,3.091500014066696,0.0,-3.184273685580513,-3.171274477,-0.07600000072270632,232,337,47,0,39,212,6,0
118,3.026842111035397,0.0,-3.1668680303160026,-3.154210906,-0.07400000058114528,232,337,47,0,39,212,6,0
119,2.9665000081062316,0.0,-3.160825543583582,-3.1484249825,-0.07250000033527612,232,337,47,0,39,212,6,0
120,2.9010526381040873,0.0,-3.1368733752057616,-3.12464385625,-0.07150000035762787,232,337,47,0,39,212,6,0
121,2.839000004529953,0.0,-3.126245705374521,-3.1141017074999997,-0.07100000027567148,232,337,47,0,39,212,6,0
122,2.7721052608991923,0.0,-3.109501424741132,-3.097528469,-0.07000000029802322,232,337,47,0,39,212,6,0
123,2.7089999973773957,0.0,-3.100491852157137,-3.0886044175,-0.06950000021606684,232,337,47,0,39,212,6,0
124,2.7089999973773957,0.0,-3.100491852157137,-3.0886044175,-0.06950000021606684,232,337,47,0,39,212,6,0
125,2.6478947401046753,0.0,-3.095588527157137,-3.0837010924999997,-0.06950000021606684,232,337,47,0,39,212,6,0
126,2.5780000030994414,0.0,-3.095759569292356,-3.0837010924999997,-0.07050000019371509,232,337,47,0,39,212,6,0
127,2.513157901011015,0.0,-3.0750424469239026,-3.062812928,-0.07150000017136335,232,337,47,0,39,212,6,0
128,2.4450000047683718,0.0,-3.0481722259239024,-3.035942707,-0.07150000017136335,232,337,47,0,39,212,6,0
129,2.377894740355642,0.0,-3.042398847874521,-3.03025485,-0.07100000027567148,232,337,47,0,39,212,6,0
130,2.3080000042915345,0.0,-3.006420987824215,-2.994362511,-0.07050000037997961,232,337,47,0,39,212,6,0
131,2.2447368471246016,0.0,-2.988879629709273,-2.976906674,-0.0700000001117587,232,337,47,0,39,212,6,0
132,2.1785000056028365,0.0,-2.954568900093419,-2.9426814654999998,-0.0694999998435378,232,337,47,0,39,212,6,0
133,2.1136842119066337,0.0,-2.9305061197266595,-2.9187042062499997,-0.06899999957531691,232,337,47,0,39,212,6,0
134,2.0485000014305115,0.0,-2.9086623810541687,-2.8970315097499997,-0.06799999941140414,232,337,47,0,39,212,6,0
135,1.9857894746880782,0.0,-2.8831411486281358,-2.8716813195,-0.06699999924749137,232,337,47,0,39,212,6,0
136,1.9230000019073485,0.0,-2.867192796998451,-2.85564744675,-0.06749999951571226,232,337,47,0,39,212,6,0
137,1.8615789538935612,0.0,-2.8387774543908604,-2.827061062,-0.06849999949336052,232,337,47,0,39,212,6,0
138,1.7980000048875808,0.0,-2.82112433591492,-2.80906585925,-0.07049999944865704,232,337,47,0,39,212,6,0
139,1.7368421084002446,0.0,-2.7986169256742865,-2.78621636475,-0.07249999940395355,232,337,47,0,39,212,6,0
140,1.6750000029802323,0.0,-2.766413477342989,-2.75375635325,-0.07399999927729368,232,337,47,0,39,212,6,0
141,1.6163157946185063,0.0,-2.7437350249612686,-2.73090685875,-0.07499999925494194,232,337,47,0,39,212,6,0
142,1.5565000042319297,0.0,-2.7132112525756398,-2.7002120442499997,-0.0759999992325902,232,337,47,0,39,212,6,0
143,1.4921052691183592,0.0,-2.681768393897274,-2.6686836645,-0.07649999931454658,232,337,47,0,39,212,6,0
144,1.4330000057816505,0.0,-2.655240257110061,-2.6418134435,-0.07849999926984311,232,337,47,0,39,212,6,0
145,1.3684210542001223,0.0,-2.604943539524867,-2.59126016275,-0.07999999932944775,232,337,47,0,39,212,6,0
146,1.3100000016391278,0.0,-2.573709359274867,-2.5600259825,-0.07999999932944775,232,337,47,0,39,212,6,0
147,1.2473684227780293,0.0,-2.5518530752422044,-2.5382552195,-0.07949999943375588,232,337,47,0,39,212,6,0
148,1.1930000014603137,0.0,-2.508029895208506,-2.4945175605,-0.078999999538064,232,337,47,0,39,212,6,0
149,1.1305263113034398,0.0,-2.4101481312556863,-2.39689235975,-0.07749999929219484,232,337,47,0,39,212,6,0
150,1.0764999957755208,0.0,-2.3423488404294095,-2.32952067425,-0.07499999906867742,232,337,47,0,39,212,6,0
151,3.228499972820282,0.824999988079071,-2.4454788259358033,-2.454800628,-0.05449999962002039,232,337,47,0,39,212,6,0
152,3.1421052405708716,0.5210526240499396,-2.445170932674205,-2.45406512925,-0.051999999582767485,232,337,47,0,39,212,6,0
153,3.0889999747276304,0.4949999928474426,-2.456251298814413,-2.4648034109999997,-0.04999999962747097,232,337,47,0,39,212,6,0
154,3.003157879176893,0.17368420801664652,-2.4555397425134515,-2.4639208124999996,-0.04899999964982271,232,337,47,0,39,212,6,0
155,2.9519999861717223,0.16499999761581421,-2.468030675863931,-2.4763262247499997,-0.048499999660998584,232,337,47,0,39,212,6,0
156,2.8763157819446765,0.0,-2.467785509613931,-2.4760810584999997,-0.048499999660998584,232,337,47,0,39,212,6,0
157,2.826499992609024,0.0,-2.4810849174350644,-2.489123903,-0.046999999601393935,232,337,47,0,39,212,6,0
158,2.7563157897246513,0.0,-2.4801521373505433,-2.4878490385,-0.044999999646097424,232,337,47,0,39,212,6,0
159,2.707499998807907,0.0,-2.4793174237754,-2.4866722405,-0.04299999969080091,232,337,47,0,39,212,6,0
160,2.64578946640617,0.0,-2.4704788933830306,-2.4777481889999997,-0.04249999970197678,232,337,47,0,39,212,6,0
161,2.5979999959468842,0.0,-2.4761542049912153,-2.4833379795,-0.041999999713152644,232,337,47,0,39,212,6,0
162,2.546842104510257,0.0,-2.481718904709219,-2.488731637,-0.04099999973550439,232,337,47,0,39,212,6,0
163,2.5014999985694883,0.0,-2.4706362419175116,-2.47730688975,-0.03899999968707561,232,337,47,0,39,212,6,0
164,2.4584210546393144,0.0,-2.466663400368003,-2.4729919637499997,-0.0369999997317791,232,337,47,0,39,212,6,0
165,2.408500003814697,0.0,-2.4704378123421353,-2.47642429125,-0.034999999683350325,232,337,47,0,39,212,6,0
166,2.3636842150437203,0.0,-2.4619539118235614,-2.4675983062499998,-0.03299999963492155,232,337,47,0,39,212,6,0
167,2.3150000035762788,0.0,-2.4575397710618656,-2.462842081,-0.030999999586492778,232,337,47,0,39,212,6,0
168,2.2684210538864136,0.0,-2.4507355464204092,-2.455781293,-0.029499999620020388,232,337,47,0,39,212,6,0
169,2.219999998807907,0.0,-2.4503546775483405,-2.45514386075,-0.027999999560415746,232,337,47,0,39,212,6,0
170,2.175263160153439,0.0,-2.4312795950360853,-2.43572669375,-0.02599999960511923,232,337,47,0,39,212,6,0
171,2.126500004529953,0.0,-2.420356577421402,-2.42454711275,-0.024499999545514583,232,337,47,0,39,212,6,0
172,2.0800000052703056,0.0,-2.3995288433095907,-2.4034628152499997,-0.022999999485909937,232,337,47,0,39,212,6,0
173,2.0320000052452087,0.0,-2.387478060934547,-2.3911554695,-0.02149999951943755,232,337,47,0,39,212,6,0
174,1.9842105288254588,0.0,-2.389695954312023,-2.3931167995,-0.019999999552965164,232,337,47,0,39,212,6,0
175,1.937000000476837,0.0,-2.3590250823149868,-2.3622748852499997,-0.018999999575316905,232,337,47,0,39,212,6,0
176,1.8873684155313593,0.0,-2.3643081279418436,-2.36747240975,-0.018499999586492778,232,337,47,0,39,212,6,0
177,1.8404999941587448,0.0,-2.348310743068941,-2.35138950375,-0.017999999597668646,232,337,47,0,39,212,6,0
178,1.7936842033737583,0.0,-2.352146733701615,-2.354968931,-0.01649999963119626,232,337,47,0,39,212,6,0
179,1.7474999934434892,0.0,-2.325030198214824,-2.3275103109999997,-0.014499999675899744,232,337,47,0,39,212,6,0
180,1.6957894657787524,0.0,-2.3251396618517375,-2.32736321125,-0.012999999709427357,232,337,47,0,39,212,6,0
